Pressure    Depth  Temperature   Density   Basalt       Vs         Vp        Entropy
 (GPa)       (km)     (K)       (g/cm^3)  Fraction    (km/s)     (km/s)     (J/(g.K))
  0.00       0.00    1700.00     3.17304   0.000     4.22685     7.32058     2.58572
  0.10       5.74    1700.00     3.17676   0.000     4.23130     7.33539     2.58427
  0.20       9.64    1700.00     3.18044   0.000     4.23566     7.35004     2.58282
  0.30      13.55    1700.00     3.18408   0.000     4.23997     7.36452     2.58140
  0.40      17.22    1700.00     3.18769   0.000     4.24425     7.37884     2.57998
  0.50      20.74    1700.00     3.19128   0.000     4.24849     7.39301     2.57859
  0.60      24.26    1700.00     3.19485   0.000     4.25271     7.40705     2.57720
  0.70      27.30    1700.00     3.19839   0.000     4.25689     7.42093     2.57583
  0.80      30.33    1700.00     3.20191   0.000     4.26104     7.43466     2.57448
  0.90      33.35    1700.00     3.20541   0.000     4.26515     7.44827     2.57314
  1.00      36.37    1700.00     3.20888   0.000     4.26924     7.46174     2.57181
  1.10      39.40    1700.00     3.21234   0.000     4.27329     7.47509     2.57050
  1.20      42.39    1700.00     3.21577   0.000     4.27732     7.48831     2.56919
  1.30      45.37    1700.00     3.21918   0.000     4.28132     7.50142     2.56790
  1.40      48.36    1700.00     3.22258   0.000     4.28529     7.51442     2.56663
  1.50      51.34    1700.00     3.22595   0.000     4.28924     7.52731     2.56536
  1.60      54.33    1700.00     3.22931   0.000     4.29316     7.54010     2.56410
  1.70      57.31    1700.00     3.23264   0.000     4.29707     7.55280     2.56286
  1.80      60.30    1700.00     3.23597   0.000     4.30096     7.56542     2.56162
  1.90      63.33    1700.00     3.23929   0.000     4.30487     7.57804     2.56038
  2.00      66.36    1700.00     3.24261   0.000     4.30881     7.59070     2.55913
  2.10      69.39    1700.00     3.24592   0.000     4.31276     7.60333     2.55788
  2.20      72.42    1700.00     3.24922   0.000     4.31669     7.61587     2.55664
  2.30      75.45    1700.00     3.25249   0.000     4.32059     7.62829     2.55541
  2.40      78.48    1700.00     3.25575   0.000     4.32446     7.64061     2.55420
  2.50      81.50    1700.00     3.25900   0.000     4.32830     7.65281     2.55299
  2.60      84.49    1700.00     3.26222   0.000     4.33211     7.66490     2.55179
  2.70      87.48    1700.00     3.26579   0.000     4.33649     7.67875     2.55055
  2.80      90.47    1700.00     3.27056   0.000     4.34288     7.69887     2.54911
  2.90      93.46    1700.00     3.27506   0.000     4.34883     7.71752     2.54772
  3.00      96.45    1700.00     3.27935   0.000     4.35443     7.73500     2.54638
  3.10      99.44    1700.00     3.28345   0.000     4.35974     7.75151     2.54509
  3.20     102.44    1700.00     3.28740   0.000     4.36481     7.76723     2.54383
  3.30     105.43    1700.00     3.29123   0.000     4.36967     7.78227     2.54259
  3.40     108.42    1700.00     3.29495   0.000     4.37436     7.79673     2.54139
  3.50     111.41    1700.00     3.29858   0.000     4.37890     7.81070     2.54020
  3.60     114.40    1700.00     3.30213   0.000     4.38331     7.82424     2.53904
  3.70     117.41    1700.00     3.30560   0.000     4.38760     7.83740     2.53789
  3.80     120.43    1700.00     3.30902   0.000     4.39180     7.85022     2.53676
  3.90     123.45    1700.00     3.31237   0.000     4.39590     7.86275     2.53565
  4.00     126.47    1700.00     3.31568   0.000     4.39992     7.87501     2.53455
  4.10     129.48    1700.00     3.31894   0.000     4.40387     7.88703     2.53346
  4.20     132.50    1700.00     3.32217   0.000     4.40775     7.89883     2.53239
  4.30     135.52    1700.00     3.32535   0.000     4.41157     7.91043     2.53133
  4.40     138.53    1700.00     3.32850   0.000     4.41533     7.92185     2.53028
  4.50     141.55    1700.00     3.33162   0.000     4.41904     7.93311     2.52923
  4.60     144.57    1700.00     3.33470   0.000     4.42270     7.94421     2.52820
  4.70     147.59    1700.00     3.33777   0.000     4.42632     7.95517     2.52718
  4.80     150.60    1700.00     3.34080   0.000     4.42990     7.96600     2.52617
  4.90     153.62    1700.00     3.34381   0.000     4.43343     7.97670     2.52516
  5.00     156.64    1700.00     3.34680   0.000     4.43694     7.98729     2.52417
  5.10     159.66    1700.00     3.34977   0.000     4.44040     7.99778     2.52318
  5.20     162.67    1700.00     3.35272   0.000     4.44384     8.00816     2.52220
  5.30     165.69    1700.00     3.35565   0.000     4.44724     8.01845     2.52122
  5.40     168.71    1700.00     3.35857   0.000     4.45061     8.02864     2.52026
  5.50     171.72    1700.00     3.36147   0.000     4.45396     8.03875     2.51930
  5.60     174.74    1700.00     3.36435   0.000     4.45728     8.04878     2.51834
  5.70     177.76    1700.00     3.36721   0.000     4.46057     8.05874     2.51740
  5.80     180.78    1700.00     3.37007   0.000     4.46384     8.06862     2.51646
  5.90     183.79    1700.00     3.37290   0.000     4.46709     8.07843     2.51553
  6.00     186.79    1700.00     3.37573   0.000     4.47032     8.08817     2.51460
  6.10     189.79    1700.00     3.37854   0.000     4.47352     8.09785     2.51368
  6.20     192.78    1700.00     3.38134   0.000     4.47671     8.10747     2.51276
  6.30     195.77    1700.00     3.38413   0.000     4.47987     8.11703     2.51185
  6.40     198.76    1700.00     3.38691   0.000     4.48302     8.12653     2.51095
  6.50     201.75    1700.00     3.38967   0.000     4.48614     8.13598     2.51005
  6.60     204.74    1700.00     3.39243   0.000     4.48925     8.14538     2.50916
  6.70     207.74    1700.00     3.39517   0.000     4.49235     8.15472     2.50827
  6.80     210.73    1700.00     3.39791   0.000     4.49542     8.16402     2.50739
  6.90     213.72    1700.00     3.40063   0.000     4.49849     8.17327     2.50651
  7.00     216.71    1700.00     3.40335   0.000     4.50153     8.18247     2.50564
  7.10     219.70    1700.00     3.40606   0.000     4.50456     8.19163     2.50477
  7.20     222.63    1700.00     3.40876   0.000     4.50758     8.20075     2.50391
  7.30     225.55    1700.00     3.41145   0.000     4.51058     8.20982     2.50305
  7.40     228.47    1700.00     3.41413   0.000     4.51357     8.21885     2.50219
  7.50     231.40    1700.00     3.41681   0.000     4.51655     8.22785     2.50135
  7.60     234.32    1700.00     3.41947   0.000     4.51951     8.23680     2.50050
  7.70     237.24    1700.00     3.42214   0.000     4.52246     8.24572     2.49966
  7.80     240.16    1700.00     3.42479   0.000     4.52540     8.25461     2.49882
  7.90     243.08    1700.00     3.42743   0.000     4.52833     8.26345     2.49799
  8.00     246.01    1700.00     3.43007   0.000     4.53125     8.27227     2.49717
  8.10     248.93    1700.00     3.43271   0.000     4.53416     8.28105     2.49634
  8.20     251.85    1700.00     3.43533   0.000     4.53705     8.28980     2.49552
  8.30     254.77    1700.00     3.43796   0.000     4.53994     8.29852     2.49471
  8.40     257.69    1700.00     3.44057   0.000     4.54282     8.30721     2.49390
  8.50     260.62    1700.00     3.44318   0.000     4.54568     8.31586     2.49309
  8.60     263.54    1700.00     3.44579   0.000     4.54854     8.32450     2.49229
  8.70     266.45    1700.00     3.44839   0.000     4.55140     8.33310     2.49149
  8.80     269.36    1700.00     3.45098   0.000     4.55424     8.34167     2.49069
  8.90     272.26    1700.00     3.45357   0.000     4.55707     8.35023     2.48990
  9.00     275.16    1700.00     3.45616   0.000     4.55990     8.35875     2.48911
  9.10     278.06    1700.00     3.45874   0.000     4.56273     8.36725     2.48832
  9.20     280.97    1700.00     3.46132   0.000     4.56554     8.37573     2.48754
  9.30     283.87    1700.00     3.46389   0.000     4.56835     8.38418     2.48676
  9.40     286.77    1700.00     3.46646   0.000     4.57115     8.39262     2.48598
  9.50     289.68    1700.00     3.46903   0.000     4.57395     8.40103     2.48521
  9.60     292.58    1700.00     3.47159   0.000     4.57675     8.40942     2.48444
  9.70     295.48    1700.00     3.47415   0.000     4.57954     8.41780     2.48367
  9.80     298.39    1700.00     3.47671   0.000     4.58232     8.42616     2.48291
  9.90     301.29    1700.00     3.47927   0.000     4.58511     8.43450     2.48214
 10.00     304.19    1700.00     3.48183   0.000     4.58789     8.44282     2.48139
 10.10     307.10    1700.00     3.48438   0.000     4.59067     8.45113     2.48063
 10.20     310.00    1700.00     3.48693   0.000     4.59344     8.45942     2.47988
 10.30     312.81    1700.00     3.48949   0.000     4.59622     8.46770     2.47912
 10.40     315.62    1700.00     3.49204   0.000     4.59900     8.47597     2.47838
 10.50     318.44    1700.00     3.49459   0.000     4.60177     8.48423     2.47763
 10.60     321.25    1700.00     3.49715   0.000     4.60455     8.49248     2.47688
 10.70     324.06    1700.00     3.49970   0.000     4.60733     8.50073     2.47614
 10.80     326.88    1700.00     3.50226   0.000     4.61011     8.50896     2.47540
 10.90     329.69    1700.00     3.50885   0.000     4.64958     8.55544     2.47253
 11.00     332.50    1700.00     3.51135   0.000     4.65223     8.56325     2.47177
 11.10     335.31    1700.00     3.51386   0.000     4.65488     8.57103     2.47102
 11.20     338.13    1700.00     3.51636   0.000     4.65751     8.57881     2.47027
 11.30     340.94    1700.00     3.51887   0.000     4.66014     8.58658     2.46952
 11.40     343.75    1700.00     3.52138   0.000     4.66276     8.59433     2.46877
 11.50     346.56    1700.00     3.52389   0.000     4.66538     8.60207     2.46803
 11.60     349.38    1700.00     3.52640   0.000     4.66799     8.60981     2.46729
 11.70     352.19    1700.00     3.52892   0.000     4.67059     8.61754     2.46655
 11.80     355.00    1700.00     3.53144   0.000     4.67319     8.62526     2.46581
 11.90     357.81    1700.00     3.53396   0.000     4.67578     8.63297     2.46508
 12.00     360.62    1700.00     3.53649   0.000     4.67837     8.64068     2.46435
 12.10     363.44    1700.00     3.53902   0.000     4.68095     8.64838     2.46362
 12.20     366.25    1700.00     3.54156   0.000     4.68353     8.65609     2.46289
 12.30     369.06    1700.00     3.54410   0.000     4.68610     8.66379     2.46217
 12.40     371.88    1700.00     3.54666   0.000     4.68867     8.67149     2.46144
 12.50     374.69    1700.00     3.54922   0.000     4.69124     8.67920     2.46072
 12.60     377.50    1700.00     3.55179   0.000     4.69380     8.68691     2.46000
 12.70     380.31    1700.00     3.55438   0.000     4.69637     8.69462     2.45929
 12.80     383.12    1700.00     3.55697   0.000     4.69893     8.70234     2.45857
 12.90     385.94    1700.00     3.55958   0.000     4.70149     8.71007     2.45786
 13.00     388.75    1700.00     3.56221   0.000     4.70405     8.71782     2.45714
 13.10     391.56    1700.00     3.56485   0.000     4.70661     8.72559     2.45643
 13.20     394.38    1700.00     3.56752   0.000     4.70917     8.73337     2.45572
 13.30     397.19    1700.00     3.57020   0.000     4.71173     8.74117     2.45501
 13.40     400.00    1700.00     3.57291   0.000     4.71430     8.74901     2.45430
 13.50     402.78    1700.00     3.59269   0.000     4.76453     8.82738     2.44752
 13.60     405.56    1700.00     3.61963   0.000     4.83556     8.93657     2.43856
 13.70     408.33    1700.00     3.64948   0.000     4.91608     9.05983     2.42906
 13.80     411.11    1700.00     3.68349   0.000     5.01049     9.20360     2.41870
 13.90     413.89    1700.00     3.72354   0.000     5.12582     9.37810     2.40706
 14.00     416.67    1700.00     3.74218   0.000     5.17787     9.45895     2.40182
 14.10     419.44    1700.00     3.74483   0.000     5.18034     9.46669     2.40111
 14.20     422.22    1700.00     3.74753   0.000     5.18283     9.47450     2.40040
 14.30     425.00    1700.00     3.75028   0.000     5.18533     9.48240     2.39969
 14.40     427.78    1700.00     3.75310   0.000     5.18789     9.49044     2.39898
 14.50     430.56    1700.00     3.75597   0.000     5.19041     9.49850     2.39827
 14.60     433.33    1700.00     3.75893   0.000     5.19299     9.50672     2.39756
 14.70     436.11    1700.00     3.76198   0.000     5.19560     9.51509     2.39685
 14.80     438.89    1700.00     3.76513   0.000     5.19823     9.52360     2.39614
 14.90     441.67    1700.00     3.76837   0.000     5.20084     9.53220     2.39544
 15.00     444.44    1700.00     3.77160   0.000     5.20316     9.54051     2.39476
 15.10     447.22    1700.00     3.77463   0.000     5.20471     9.54777     2.39414
 15.20     450.00    1700.00     3.77774   0.000     5.20622     9.55508     2.39353
 15.30     452.63    1700.00     3.78093   0.000     5.20767     9.56244     2.39292
 15.40     455.26    1700.00     3.78423   0.000     5.20906     9.56988     2.39233
 15.50     457.89    1700.00     3.78626   0.000     5.21097     9.57589     2.39171
 15.60     460.53    1700.00     3.78813   0.000     5.21293     9.58174     2.39109
 15.70     463.16    1700.00     3.79001   0.000     5.21488     9.58757     2.39047
 15.80     465.79    1700.00     3.79188   0.000     5.21683     9.59339     2.38985
 15.90     468.42    1700.00     3.79375   0.000     5.21877     9.59920     2.38923
 16.00     471.05    1700.00     3.79562   0.000     5.22071     9.60500     2.38862
 16.10     473.68    1700.00     3.79748   0.000     5.22264     9.61079     2.38801
 16.20     476.32    1700.00     3.79934   0.000     5.22456     9.61656     2.38740
 16.30     478.95    1700.00     3.80120   0.000     5.22648     9.62232     2.38679
 16.40     481.58    1700.00     3.80305   0.000     5.22840     9.62807     2.38619
 16.50     484.21    1700.00     3.80490   0.000     5.23031     9.63381     2.38558
 16.60     486.84    1700.00     3.80675   0.000     5.23221     9.63954     2.38498
 16.70     489.47    1700.00     3.80859   0.000     5.23411     9.64525     2.38438
 16.80     492.11    1700.00     3.81044   0.000     5.23601     9.65096     2.38378
 16.90     494.74    1700.00     3.81227   0.000     5.23790     9.65665     2.38318
 17.00     497.37    1700.00     3.81411   0.000     5.23978     9.66233     2.38259
 17.10     500.00    1700.00     3.81594   0.000     5.24166     9.66800     2.38199
 17.20     502.50    1700.00     3.81777   0.000     5.24354     9.67365     2.38140
 17.30     505.00    1700.00     3.81960   0.000     5.24540     9.67930     2.38081
 17.40     507.50    1700.00     3.82142   0.000     5.24727     9.68493     2.38022
 17.50     510.00    1700.00     3.82325   0.000     5.24913     9.69056     2.37963
 17.60     512.50    1700.00     3.82506   0.000     5.25098     9.69617     2.37905
 17.70     515.00    1700.00     3.82688   0.000     5.25283     9.70177     2.37846
 17.80     517.50    1700.00     3.82869   0.000     5.25468     9.70736     2.37788
 17.90     520.00    1700.00     3.83050   0.000     5.25652     9.71294     2.37730
 18.00     522.50    1700.00     3.83231   0.000     5.25835     9.71851     2.37672
 18.10     525.00    1700.00     3.83411   0.000     5.26018     9.72406     2.37615
 18.20     527.50    1700.00     3.83592   0.000     5.26201     9.72961     2.37557
 18.30     530.00    1700.00     3.83772   0.000     5.26383     9.73515     2.37500
 18.40     532.50    1700.00     3.83951   0.000     5.26565     9.74067     2.37443
 18.50     535.00    1700.00     3.84130   0.000     5.26746     9.74619     2.37386
 18.60     537.50    1700.00     3.84309   0.000     5.26926     9.75169     2.37329
 18.70     540.00    1700.00     3.84526   0.000     5.27339     9.75963     2.37240
 18.80     542.50    1700.00     3.84753   0.000     5.27812     9.76822     2.37143
 18.90     545.00    1700.00     3.84978   0.000     5.28274     9.77667     2.37048
 19.00     547.50    1700.00     3.85882   0.000     5.30657     9.81230     2.36825
 19.10     550.00    1700.00     3.86828   0.000     5.33109     9.84862     2.36575
 19.20     552.63    1700.00     3.87904   0.000     5.35880     9.88911     2.36276
 19.30     555.26    1700.00     3.89147   0.000     5.39053     9.93484     2.35915
 19.40     557.90    1700.00     3.90603   0.000     5.42746     9.98728     2.35474
 19.50     560.53    1700.00     3.92336   0.000     5.47118    10.04850     2.34927
 19.60     563.16    1700.00     3.93265   0.000     5.49409    10.08133     2.34615
 19.70     565.79    1700.00     3.93509   0.000     5.49937    10.09050     2.34517
 19.80     568.42    1700.00     3.93748   0.000     5.50443    10.09940     2.34422
 19.90     571.05    1700.00     3.93988   0.000     5.50943    10.10824     2.34330
 20.00     573.68    1700.00     3.94287   0.000     5.51602    10.11895     2.34233
 20.10     576.32    1700.00     3.94573   0.000     5.52214    10.12913     2.34140
 20.20     578.95    1700.00     3.94848   0.000     5.52785    10.13883     2.34052
 20.30     581.58    1700.00     3.95114   0.000     5.53320    10.14812     2.33967
 20.40     584.21    1700.00     3.95371   0.000     5.53822    10.15704     2.33885
 20.50     586.84    1700.00     3.95622   0.000     5.54297    10.16563     2.33806
 20.60     589.47    1700.00     3.95865   0.000     5.54747    10.17394     2.33729
 20.70     592.11    1700.00     3.96456   0.000     5.54436    10.18436     2.33625
 20.80     594.74    1700.00     3.96902   0.000     5.54507    10.19448     2.33526
 20.90     597.37    1700.00     3.97170   0.000     5.54936    10.20332     2.33443
 21.00     600.00    1700.00     3.97431   0.000     5.55346    10.21190     2.33362
 21.10     602.50    1700.00     3.97684   0.000     5.55738    10.22024     2.33283
 21.20     605.00    1700.00     3.97932   0.000     5.56115    10.22837     2.33206
 21.30     607.50    1700.00     3.98174   0.000     5.56477    10.23631     2.33131
 21.40     610.00    1700.00     3.98412   0.000     5.56828    10.24408     2.33057
 21.50     612.50    1700.00     3.98645   0.000     5.57167    10.25170     2.32985
 21.60     615.00    1700.00     3.98875   0.000     5.57496    10.25919     2.32914
 21.70     617.50    1700.00     3.99101   0.000     5.57817    10.26656     2.32844
 21.80     620.00    1700.00     3.99324   0.000     5.58130    10.27382     2.32775
 21.90     622.50    1700.00     3.99544   0.000     5.58435    10.28098     2.32707
 22.00     625.00    1700.00     3.99762   0.000     5.58735    10.28806     2.32639
 22.10     627.50    1700.00     3.99977   0.000     5.59028    10.29506     2.32572
 22.20     630.00    1700.00     4.00191   0.000     5.59317    10.30199     2.32506
 22.30     632.50    1700.00     4.00403   0.000     5.59601    10.30887     2.32440
 22.40     635.00    1700.00     4.00613   0.000     5.59882    10.31569     2.32375
 22.50     637.50    1700.00     4.00821   0.000     5.60159    10.32246     2.32310
 22.60     640.00    1700.00     4.01028   0.000     5.60432    10.32920     2.32245
 22.70     642.50    1700.00     4.01235   0.000     5.60704    10.33590     2.32181
 22.80     645.00    1700.00     4.01440   0.000     5.60973    10.34257     2.32117
 22.90     647.50    1700.00     4.01644   0.000     5.61241    10.34922     2.32053
 23.00     650.00    1700.00     4.01848   0.000     5.61507    10.35586     2.31989
 23.10     652.50    1700.00     4.02051   0.000     5.61773    10.36248     2.31925
 23.20     655.00    1700.00     4.02254   0.000     5.62038    10.36911     2.31861
