Pressure    Depth  Temperature   Density   Basalt       Vs         Vp        Entropy
 (GPa)       (km)     (K)       (g/cm^3)  Fraction    (km/s)     (km/s)     (J/(g.K))
  0.00       0.00    1600.00     3.18227   0.000     4.26131     7.40485     2.50793
  0.10       5.74    1600.00     3.18722   0.000     4.26849     7.41834     2.50671
  0.20       9.64    1600.00     3.19238   0.000     4.27613     7.43180     2.50552
  0.30      13.55    1600.00     3.19773   0.000     4.28418     7.44526     2.50437
  0.40      17.22    1600.00     3.20172   0.000     4.28935     7.45909     2.50304
  0.50      20.74    1600.00     3.20524   0.000     4.29356     7.47293     2.50167
  0.60      24.26    1600.00     3.20877   0.000     4.29782     7.48682     2.50029
  0.70      27.30    1600.00     3.21228   0.000     4.30206     7.50061     2.49892
  0.80      30.33    1600.00     3.21576   0.000     4.30627     7.51423     2.49756
  0.90      33.35    1600.00     3.21922   0.000     4.31044     7.52770     2.49622
  1.00      36.37    1600.00     3.22266   0.000     4.31456     7.54102     2.49489
  1.10      39.40    1600.00     3.22607   0.000     4.31865     7.55418     2.49358
  1.20      42.39    1600.00     3.22947   0.000     4.32270     7.56720     2.49228
  1.30      45.37    1600.00     3.23283   0.000     4.32671     7.58008     2.49099
  1.40      48.36    1600.00     3.23618   0.000     4.33069     7.59282     2.48972
  1.50      51.34    1600.00     3.23951   0.000     4.33464     7.60544     2.48846
  1.60      54.33    1600.00     3.24282   0.000     4.33855     7.61794     2.48722
  1.70      57.31    1600.00     3.24610   0.000     4.34243     7.63032     2.48598
  1.80      60.30    1600.00     3.24937   0.000     4.34628     7.64259     2.48476
  1.90      63.33    1600.00     3.25262   0.000     4.35010     7.65474     2.48355
  2.00      66.36    1600.00     3.25586   0.000     4.35389     7.66679     2.48235
  2.10      69.39    1600.00     3.25907   0.000     4.35765     7.67874     2.48116
  2.20      72.42    1600.00     3.26227   0.000     4.36138     7.69059     2.47998
  2.30      75.45    1600.00     3.26545   0.000     4.36509     7.70235     2.47881
  2.40      78.48    1600.00     3.26862   0.000     4.36877     7.71401     2.47765
  2.50      81.50    1600.00     3.27397   0.000     4.37601     7.73685     2.47615
  2.60      84.49    1600.00     3.27844   0.000     4.38182     7.75512     2.47480
  2.70      87.48    1600.00     3.28269   0.000     4.38729     7.77222     2.47350
  2.80      90.47    1600.00     3.28675   0.000     4.39246     7.78836     2.47224
  2.90      93.46    1600.00     3.29067   0.000     4.39740     7.80371     2.47101
  3.00      96.45    1600.00     3.29445   0.000     4.40214     7.81839     2.46981
  3.10      99.44    1600.00     3.29813   0.000     4.40671     7.83250     2.46863
  3.20     102.44    1600.00     3.30171   0.000     4.41113     7.84613     2.46747
  3.30     105.43    1600.00     3.30522   0.000     4.41542     7.85934     2.46633
  3.40     108.42    1600.00     3.30865   0.000     4.41961     7.87218     2.46521
  3.50     111.41    1600.00     3.31202   0.000     4.42369     7.88469     2.46410
  3.60     114.40    1600.00     3.31533   0.000     4.42769     7.89692     2.46301
  3.70     117.41    1600.00     3.31860   0.000     4.43160     7.90889     2.46193
  3.80     120.43    1600.00     3.32182   0.000     4.43545     7.92063     2.46086
  3.90     123.45    1600.00     3.32500   0.000     4.43923     7.93215     2.45981
  4.00     126.47    1600.00     3.32815   0.000     4.44296     7.94349     2.45877
  4.10     129.48    1600.00     3.33126   0.000     4.44663     7.95466     2.45773
  4.20     132.50    1600.00     3.33434   0.000     4.45025     7.96566     2.45671
  4.30     135.52    1600.00     3.33739   0.000     4.45382     7.97652     2.45570
  4.40     138.53    1600.00     3.34041   0.000     4.45735     7.98725     2.45469
  4.50     141.55    1600.00     3.34341   0.000     4.46084     7.99784     2.45369
  4.60     144.57    1600.00     3.34639   0.000     4.46430     8.00833     2.45270
  4.70     147.59    1600.00     3.34934   0.000     4.46772     8.01870     2.45172
  4.80     150.60    1600.00     3.35228   0.000     4.47111     8.02897     2.45075
  4.90     153.62    1600.00     3.35519   0.000     4.47446     8.03914     2.44978
  5.00     156.64    1600.00     3.35809   0.000     4.47779     8.04923     2.44883
  5.10     159.66    1600.00     3.36097   0.000     4.48109     8.05923     2.44787
  5.20     162.67    1600.00     3.36384   0.000     4.48436     8.06914     2.44693
  5.30     165.69    1600.00     3.36669   0.000     4.48761     8.07898     2.44599
  5.40     168.71    1600.00     3.36952   0.000     4.49083     8.08875     2.44506
  5.50     171.72    1600.00     3.37234   0.000     4.49403     8.09845     2.44413
  5.60     174.74    1600.00     3.37515   0.000     4.49721     8.10808     2.44321
  5.70     177.76    1600.00     3.37794   0.000     4.50037     8.11765     2.44230
  5.80     180.78    1600.00     3.38072   0.000     4.50351     8.12716     2.44139
  5.90     183.79    1600.00     3.38349   0.000     4.50662     8.13661     2.44049
  6.00     186.79    1600.00     3.38625   0.000     4.50972     8.14601     2.43959
  6.10     189.79    1600.00     3.38900   0.000     4.51281     8.15535     2.43870
  6.20     192.78    1600.00     3.39174   0.000     4.51587     8.16463     2.43781
  6.30     195.77    1600.00     3.39446   0.000     4.51892     8.17387     2.43693
  6.40     198.76    1600.00     3.39718   0.000     4.52195     8.18306     2.43605
  6.50     201.75    1600.00     3.39989   0.000     4.52496     8.19221     2.43518
  6.60     204.74    1600.00     3.40259   0.000     4.52796     8.20130     2.43432
  6.70     207.74    1600.00     3.40527   0.000     4.53095     8.21036     2.43346
  6.80     210.73    1600.00     3.40795   0.000     4.53392     8.21937     2.43260
  6.90     213.72    1600.00     3.41063   0.000     4.53687     8.22834     2.43175
  7.00     216.71    1600.00     3.41329   0.000     4.53981     8.23727     2.43090
  7.10     219.70    1600.00     3.41594   0.000     4.54274     8.24616     2.43006
  7.20     222.63    1600.00     3.41859   0.000     4.54566     8.25502     2.42922
  7.30     225.55    1600.00     3.42123   0.000     4.54857     8.26383     2.42839
  7.40     228.47    1600.00     3.42386   0.000     4.55146     8.27261     2.42756
  7.50     231.40    1600.00     3.42649   0.000     4.55434     8.28136     2.42673
  7.60     234.32    1600.00     3.42911   0.000     4.55721     8.29007     2.42591
  7.70     237.24    1600.00     3.43172   0.000     4.56007     8.29875     2.42509
  7.80     240.16    1600.00     3.43432   0.000     4.56292     8.30740     2.42428
  7.90     243.08    1600.00     3.43692   0.000     4.56576     8.31602     2.42347
  8.00     246.01    1600.00     3.43952   0.000     4.56858     8.32460     2.42267
  8.10     248.93    1600.00     3.44210   0.000     4.57140     8.33316     2.42187
  8.20     251.85    1600.00     3.44469   0.000     4.57421     8.34168     2.42107
  8.30     254.77    1600.00     3.44726   0.000     4.57701     8.35018     2.42028
  8.40     257.69    1600.00     3.44983   0.000     4.57980     8.35866     2.41949
  8.50     260.62    1600.00     3.45240   0.000     4.58259     8.36710     2.41870
  8.60     263.54    1600.00     3.45496   0.000     4.58536     8.37552     2.41792
  8.70     266.45    1600.00     3.45751   0.000     4.58813     8.38391     2.41714
  8.80     269.36    1600.00     3.46007   0.000     4.59089     8.39228     2.41636
  8.90     272.26    1600.00     3.46261   0.000     4.59364     8.40063     2.41559
  9.00     275.16    1600.00     3.46516   0.000     4.59639     8.40895     2.41482
  9.10     278.06    1600.00     3.46769   0.000     4.59913     8.41725     2.41406
  9.20     280.97    1600.00     3.47023   0.000     4.60186     8.42553     2.41329
  9.30     283.87    1600.00     3.47276   0.000     4.60459     8.43379     2.41253
  9.40     286.77    1600.00     3.47529   0.000     4.60731     8.44203     2.41178
  9.50     289.68    1600.00     3.47782   0.000     4.61003     8.45025     2.41102
  9.60     292.58    1600.00     3.48034   0.000     4.61275     8.45845     2.41027
  9.70     295.48    1600.00     3.48286   0.000     4.61546     8.46663     2.40952
  9.80     298.39    1600.00     3.48538   0.000     4.61816     8.47480     2.40878
  9.90     301.29    1600.00     3.48790   0.000     4.62087     8.48295     2.40804
 10.00     304.19    1600.00     3.49041   0.000     4.62357     8.49109     2.40730
 10.10     307.10    1600.00     3.49759   0.000     4.66405     8.53944     2.40446
 10.20     310.00    1600.00     3.50007   0.000     4.66670     8.54722     2.40369
 10.30     312.81    1600.00     3.50253   0.000     4.66935     8.55498     2.40293
 10.40     315.62    1600.00     3.50500   0.000     4.67199     8.56272     2.40218
 10.50     318.44    1600.00     3.50746   0.000     4.67462     8.57045     2.40142
 10.60     321.25    1600.00     3.50993   0.000     4.67724     8.57816     2.40067
 10.70     324.06    1600.00     3.51239   0.000     4.67985     8.58585     2.39992
 10.80     326.88    1600.00     3.51485   0.000     4.68246     8.59353     2.39918
 10.90     329.69    1600.00     3.51731   0.000     4.68506     8.60119     2.39843
 11.00     332.50    1600.00     3.51976   0.000     4.68765     8.60884     2.39769
 11.10     335.31    1600.00     3.52222   0.000     4.69023     8.61648     2.39696
 11.20     338.13    1600.00     3.52468   0.000     4.69281     8.62410     2.39622
 11.30     340.94    1600.00     3.52713   0.000     4.69538     8.63171     2.39549
 11.40     343.75    1600.00     3.52959   0.000     4.69794     8.63931     2.39476
 11.50     346.56    1600.00     3.53205   0.000     4.70050     8.64690     2.39403
 11.60     349.38    1600.00     3.53451   0.000     4.70305     8.65448     2.39331
 11.70     352.19    1600.00     3.53697   0.000     4.70559     8.66204     2.39259
 11.80     355.00    1600.00     3.53943   0.000     4.70813     8.66960     2.39187
 11.90     357.81    1600.00     3.54189   0.000     4.71066     8.67715     2.39115
 12.00     360.62    1600.00     3.54436   0.000     4.71319     8.68469     2.39043
 12.10     363.44    1600.00     3.54683   0.000     4.71572     8.69223     2.38972
 12.20     366.25    1600.00     3.54931   0.000     4.71823     8.69976     2.38901
 12.30     369.06    1600.00     3.55179   0.000     4.72075     8.70729     2.38830
 12.40     371.88    1600.00     3.55427   0.000     4.72326     8.71481     2.38760
 12.50     374.69    1600.00     3.55676   0.000     4.72576     8.72234     2.38689
 12.60     377.50    1600.00     3.55926   0.000     4.72826     8.72986     2.38619
 12.70     380.31    1600.00     3.56177   0.000     4.73076     8.73738     2.38549
 12.80     383.12    1600.00     3.56429   0.000     4.73326     8.74491     2.38479
 12.90     385.94    1600.00     3.56681   0.000     4.73575     8.75244     2.38409
 13.00     388.75    1600.00     3.58123   0.000     4.77094     8.80841     2.37908
 13.10     391.56    1600.00     3.60265   0.000     4.82587     8.89367     2.37178
 13.20     394.38    1600.00     3.62590   0.000     4.88658     8.98755     2.36415
 13.30     397.19    1600.00     3.65167   0.000     4.95540     9.09348     2.35602
 13.40     400.00    1600.00     3.68098   0.000     5.03573     9.21645     2.34713
 13.50     402.78    1600.00     3.71527   0.000     5.13287     9.36422     2.33714
 13.60     405.56    1600.00     3.73942   0.000     5.20158     9.46966     2.33031
 13.70     408.33    1600.00     3.74178   0.000     5.20388     9.47686     2.32962
 13.80     411.11    1600.00     3.74416   0.000     5.20619     9.48407     2.32893
 13.90     413.89    1600.00     3.74657   0.000     5.20851     9.49132     2.32823
 14.00     416.67    1600.00     3.74900   0.000     5.21083     9.49861     2.32755
 14.10     419.44    1600.00     3.75146   0.000     5.21316     9.50593     2.32686
 14.20     422.22    1600.00     3.75396   0.000     5.21550     9.51329     2.32617
 14.30     425.00    1600.00     3.75648   0.000     5.21785     9.52071     2.32549
 14.40     427.78    1600.00     3.75905   0.000     5.22021     9.52818     2.32480
 14.50     430.56    1600.00     3.76166   0.000     5.22258     9.53572     2.32412
 14.60     433.33    1600.00     3.76433   0.000     5.22497     9.54334     2.32344
 14.70     436.11    1600.00     3.76705   0.000     5.22738     9.55103     2.32275
 14.80     438.89    1600.00     3.76983   0.000     5.22981     9.55883     2.32207
 14.90     441.67    1600.00     3.77268   0.000     5.23227     9.56674     2.32139
 15.00     444.44    1600.00     3.77562   0.000     5.23475     9.57477     2.32071
 15.10     447.22    1600.00     3.77865   0.000     5.23725     9.58293     2.32003
 15.20     450.00    1600.00     3.78178   0.000     5.23975     9.59122     2.31936
 15.30     452.63    1600.00     3.78496   0.000     5.24212     9.59943     2.31869
 15.40     455.26    1600.00     3.78812   0.000     5.24413     9.60726     2.31806
 15.50     457.89    1600.00     3.79114   0.000     5.24552     9.61428     2.31748
 15.60     460.53    1600.00     3.79424   0.000     5.24684     9.62135     2.31690
 15.70     463.16    1600.00     3.79744   0.000     5.24811     9.62846     2.31634
 15.80     465.79    1600.00     3.80069   0.000     5.24934     9.63558     2.31578
 15.90     468.42    1600.00     3.80254   0.000     5.25124     9.64131     2.31517
 16.00     471.05    1600.00     3.80439   0.000     5.25314     9.64703     2.31457
 16.10     473.68    1600.00     3.80623   0.000     5.25503     9.65273     2.31397
 16.20     476.32    1600.00     3.80808   0.000     5.25692     9.65843     2.31337
 16.30     478.95    1600.00     3.80992   0.000     5.25880     9.66411     2.31277
 16.40     481.58    1600.00     3.81175   0.000     5.26068     9.66979     2.31218
 16.50     484.21    1600.00     3.81359   0.000     5.26256     9.67545     2.31158
 16.60     486.84    1600.00     3.81542   0.000     5.26442     9.68110     2.31099
 16.70     489.47    1600.00     3.81724   0.000     5.26629     9.68673     2.31040
 16.80     492.11    1600.00     3.81907   0.000     5.26815     9.69236     2.30981
 16.90     494.74    1600.00     3.82112   0.000     5.27137     9.69944     2.30904
 17.00     497.37    1600.00     3.82349   0.000     5.27662     9.70864     2.30801
 17.10     500.00    1600.00     3.82583   0.000     5.28168     9.71765     2.30700
 17.20     502.50    1600.00     3.82814   0.000     5.28657     9.72646     2.30601
 17.30     505.00    1600.00     3.83043   0.000     5.29130     9.73510     2.30504
 17.40     507.50    1600.00     3.83268   0.000     5.29588     9.74358     2.30410
 17.50     510.00    1600.00     3.83491   0.000     5.30033     9.75190     2.30317
 17.60     512.50    1600.00     3.83712   0.000     5.30464     9.76008     2.30226
 17.70     515.00    1600.00     3.83931   0.000     5.30884     9.76813     2.30137
 17.80     517.50    1600.00     3.84147   0.000     5.31292     9.77605     2.30049
 17.90     520.00    1600.00     3.84362   0.000     5.31690     9.78385     2.29963
 18.00     522.50    1600.00     3.84575   0.000     5.32078     9.79154     2.29878
 18.10     525.00    1600.00     3.84785   0.000     5.32456     9.79912     2.29794
 18.20     527.50    1600.00     3.84995   0.000     5.32826     9.80660     2.29712
 18.30     530.00    1600.00     3.85202   0.000     5.33187     9.81399     2.29631
 18.40     532.50    1600.00     3.85409   0.000     5.33540     9.82129     2.29551
 18.50     535.00    1600.00     3.85613   0.000     5.33886     9.82851     2.29472
 18.60     537.50    1600.00     3.85817   0.000     5.34227     9.83566     2.29393
 18.70     540.00    1600.00     3.86972   0.000     5.37255     9.88073     2.29118
 18.80     542.50    1600.00     3.88310   0.000     5.40721     9.93152     2.28770
 18.90     545.00    1600.00     3.89934   0.000     5.44889     9.99159     2.28316
 19.00     547.50    1600.00     3.91948   0.000     5.50023    10.06433     2.27716
 19.10     550.00    1600.00     3.93773   0.000     5.54610    10.12904     2.27143
 19.20     552.63    1600.00     3.93989   0.000     5.55005    10.13671     2.27063
 19.30     555.26    1600.00     3.94242   0.000     5.55485    10.14541     2.26984
 19.40     557.90    1600.00     3.94505   0.000     5.55980    10.15430     2.26906
 19.50     560.53    1600.00     3.94760   0.000     5.56446    10.16286     2.26831
 19.60     563.16    1600.00     3.95007   0.000     5.56886    10.17111     2.26758
 19.70     565.79    1600.00     3.95248   0.000     5.57303    10.17909     2.26688
 19.80     568.42    1600.00     3.95483   0.000     5.57700    10.18683     2.26619
 19.90     571.05    1600.00     3.95713   0.000     5.58078    10.19436     2.26551
 20.00     573.68    1600.00     3.95938   0.000     5.58439    10.20169     2.26486
 20.10     576.32    1600.00     3.96159   0.000     5.58786    10.20884     2.26421
 20.20     578.95    1600.00     3.96376   0.000     5.59118    10.21583     2.26358
 20.30     581.58    1600.00     3.96589   0.000     5.59438    10.22267     2.26296
 20.40     584.21    1600.00     3.96799   0.000     5.59747    10.22937     2.26235
 20.50     586.84    1600.00     3.97006   0.000     5.60045    10.23596     2.26175
 20.60     589.47    1600.00     3.97356   0.000     5.60026    10.24346     2.26104
 20.70     592.11    1600.00     3.98124   0.000     5.59171    10.25445     2.25991
 20.80     594.74    1600.00     3.98349   0.000     5.59483    10.26169     2.25924
 20.90     597.37    1600.00     3.98570   0.000     5.59788    10.26881     2.25857
 21.00     600.00    1600.00     3.98788   0.000     5.60084    10.27583     2.25792
 21.10     602.50    1600.00     3.99004   0.000     5.60374    10.28276     2.25727
 21.20     605.00    1600.00     3.99217   0.000     5.60658    10.28961     2.25663
 21.30     607.50    1600.00     3.99428   0.000     5.60937    10.29638     2.25599
 21.40     610.00    1600.00     3.99637   0.000     5.61210    10.30309     2.25536
 21.50     612.50    1600.00     3.99844   0.000     5.61479    10.30974     2.25474
 21.60     615.00    1600.00     4.00050   0.000     5.61745    10.31633     2.25412
 21.70     617.50    1600.00     4.00254   0.000     5.62007    10.32288     2.25350
 21.80     620.00    1600.00     4.00456   0.000     5.62265    10.32938     2.25288
 21.90     622.50    1600.00     4.00658   0.000     5.62522    10.33585     2.25227
 22.00     625.00    1600.00     4.00858   0.000     5.62776    10.34229     2.25166
 22.10     627.50    1600.00     4.01058   0.000     5.63028    10.34871     2.25105
 22.20     630.00    1600.00     4.01257   0.000     5.63278    10.35510     2.25044
 22.30     632.50    1600.00     4.01455   0.000     5.63527    10.36148     2.24983
 22.40     635.00    1600.00     4.01653   0.000     5.63776    10.36784     2.24923
 22.50     637.50    1600.00     4.01850   0.000     5.64024    10.37420     2.24862
 22.60     640.00    1600.00     4.02047   0.000     5.64271    10.38056     2.24801
 22.70     642.50    1600.00     4.02243   0.000     5.64519    10.38691     2.24740
 22.80     645.00    1600.00     4.02440   0.000     5.64767    10.39328     2.24679
 22.90     647.50    1600.00     4.02636   0.000     5.65015    10.39965     2.24618
 23.00     650.00    1600.00     4.02833   0.000     5.65265    10.40605     2.24556
 23.10     652.50    1600.00     4.03029   0.000     5.65516    10.41246     2.24494
 23.20     655.00    1600.00     4.03227   0.000     5.65769    10.41891     2.24432
